Flight time (us) , Calculated , Experiment
   2464.4220000000000       ,   0.76794658153183915       ,   0.76510000000000000     
   2466.3909999999996       ,   0.54419469140488252       ,   0.66966000000000003     
   2468.3589999999999       ,   0.45206688824140734       ,   0.57189000000000001     
   2470.3440000000001       ,   0.36850080977720240       ,   0.45315000000000000     
   2472.3280000000000       ,   0.29961689092969890       ,   0.36770000000000003     
   2474.2970000000000       ,   0.24710749408695193       ,   0.29059000000000001     
   2476.2809999999999       ,   0.20884573734202616       ,   0.23375000000000001     
   2478.2660000000001       ,   0.18258221150895096       ,   0.21099999999999999     
   2480.2339999999999       ,   0.16547837475372235       ,   0.18570000000000000     
   2482.2190000000001       ,   0.15468139759594360       ,   0.16614999999999999     
   2484.2190000000001       ,   0.14843896042600946       ,   0.15554999999999999     
   2486.2030000000000       ,   0.14560660491377136       ,   0.15598999999999999     
   2488.1880000000001       ,   0.14538767515884576       ,   0.15734999999999999     
   2490.1870000000004       ,   0.14734933586533450       ,   0.15554999999999999     
   2492.1720000000000       ,   0.15106935789377823       ,   0.16097000000000000     
   2494.1559999999999       ,   0.15606068475064461       ,   0.16500000000000001     
   2496.1559999999999       ,   0.16174154307566263       ,   0.17210000000000000     
   2498.1559999999999       ,   0.16736430092786972       ,   0.17995000000000000     
   2500.1559999999999       ,   0.17241032319924013       ,   0.19309999999999999     
   2502.1559999999999       ,   0.17688336459581408       ,   0.19570000000000001     
   2504.1559999999999       ,   0.18158336526481966       ,   0.19725000000000001     
   2506.1559999999999       ,   0.18811347960477709       ,   0.20494999999999999     
   2508.1559999999999       ,   0.19859499915449152       ,   0.21265000000000001     
   2510.1720000000000       ,   0.21537754422439287       ,   0.22645999999999999     
   2512.1869999999999       ,   0.23978611148259002       ,   0.25114999999999998     
   2514.1879999999996       ,   0.27135113000207700       ,   0.28039999999999998     
   2516.2030000000000       ,   0.30804930984816647       ,   0.30695000000000000     
   2518.2190000000001       ,   0.34499808579316976       ,   0.34860000000000002     
   2520.2339999999999       ,   0.37591015324623944       ,   0.37307000000000001     
   2522.2500000000000       ,   0.39477853213885494       ,   0.39729999999999999     
   2524.2660000000001       ,   0.39767010618887855       ,   0.39921000000000001     
   2526.2809999999999       ,   0.38411144846769030       ,   0.41144999999999998     
   2528.2969999999996       ,   0.35692033834497106       ,   0.39178000000000002     
   2530.3280000000000       ,   0.32076998406217627       ,   0.35436000000000001     
   2532.3589999999999       ,   0.28147637245295781       ,   0.31902000000000003     
   2534.3750000000000       ,   0.24417646814624439       ,   0.28084999999999999     
   2536.3910000000001       ,   0.21181725367236573       ,   0.23271000000000000     
   2538.4220000000000       ,   0.18575835498112978       ,   0.20027000000000000     
   2540.4530000000000       ,   0.16637942313181173       ,   0.17807000000000001     
   2542.4839999999999       ,   0.15285971562060624       ,   0.17019000000000001     
   2544.5309999999999       ,   0.14390288394532166       ,   0.15795999999999999     
   2546.5780000000000       ,   0.13832716988468519       ,   0.14616999999999999     
   2548.6089999999999       ,   0.13503092720839829       ,   0.14538000000000001     
   2550.6410000000001       ,   0.13313476970558949       ,   0.14479000000000000     
   2552.6870000000004       ,   0.13208807279618684       ,   0.14138000000000001     
   2554.7339999999999       ,   0.13158511366908024       ,   0.14341000000000001     
   2556.7660000000001       ,   0.13146440023576950       ,   0.14177999999999999     
   2558.8129999999996       ,   0.13164258303105772       ,   0.13935000000000000     
   2560.8590000000004       ,   0.13205294795817002       ,   0.13804000000000000     
   2562.9059999999999       ,   0.13259852480756995       ,   0.13841999999999999     
   2564.9690000000001       ,   0.13315563744659817       ,   0.13464000000000001     
   2567.0160000000001       ,   0.13358083602812512       ,   0.13499000000000000     
   2569.0620000000004       ,   0.13379366083235117       ,   0.13444999999999999     
   2571.1250000000000       ,   0.13382116676544198       ,   0.13367000000000001     
   2573.1880000000001       ,   0.13384406123794651       ,   0.13605000000000000     
   2575.2500000000000       ,   0.13420087260557467       ,   0.13789000000000001     
   2577.2970000000000       ,   0.13532608660975248       ,   0.13760000000000000     
   2579.3440000000001       ,   0.13767640278411702       ,   0.13594999999999999     
   2581.4220000000000       ,   0.14167463689502025       ,   0.13980000000000001     
   2583.5000000000000       ,   0.14740853661876752       ,   0.14473000000000000     
   2585.5619999999999       ,   0.15456452622855052       ,   0.15126999999999999     
   2587.6250000000000       ,   0.16250083671938770       ,   0.16150000000000000     
   2589.6880000000001       ,   0.17019881921319216       ,   0.17308999999999999     
   2591.7659999999996       ,   0.17656781800789637       ,   0.17777000000000001     
   2593.8439999999996       ,   0.18068749064907985       ,   0.18657000000000001     
   2595.9059999999999       ,   0.18236090218114814       ,   0.19520000000000001     
   2597.9839999999999       ,   0.18226812597458281       ,   0.18951999999999999     
   2600.0630000000001       ,   0.18182050062854810       ,   0.18987000000000001     
   2602.1410000000001       ,   0.18293018571161643       ,   0.18779999999999999     
   2604.2339999999999       ,   0.18757440487848670       ,   0.19061000000000000     
   2606.3130000000001       ,   0.19711617356584199       ,   0.19947000000000001     
   2608.3910000000001       ,   0.21196070474057493       ,   0.20848000000000000     
   2610.4839999999999       ,   0.23128186008313781       ,   0.21664000000000000     
   2612.5780000000000       ,   0.25263176107519375       ,   0.24104999999999999     
   2614.6720000000000       ,   0.27249997821875921       ,   0.26589000000000002     
   2616.7660000000001       ,   0.28737671252574393       ,   0.28714000000000001     
   2618.8589999999999       ,   0.29493072930841618       ,   0.29816999999999999     
   2620.9530000000000       ,   0.29519738026662640       ,   0.29788999999999999     
   2623.0470000000000       ,   0.29095456923178281       ,   0.28843000000000002     
   2625.1410000000001       ,   0.28737138162068970       ,   0.28856999999999999     
   2627.2339999999999       ,   0.29095411025288476       ,   0.29297000000000001     
   2629.3440000000001       ,   0.30835030970864491       ,   0.30587999999999999     
   2631.4530000000000       ,   0.34439996199634842       ,   0.34721999999999997     
   2633.5470000000000       ,   0.40005166841811068       ,   0.40377000000000002     
   2635.6559999999999       ,   0.47280858783324398       ,   0.48060999999999998     
   2637.7660000000001       ,   0.55392128601106672       ,   0.58148999999999995     
   2639.8750000000000       ,   0.63048455821790506       ,   0.65674999999999994     
   2641.9839999999999       ,   0.68827942919761764       ,   0.74917999999999996     
   2644.0940000000001       ,   0.71562188214859435       ,   0.78932000000000002     
   2646.2190000000001       ,   0.70690606613924301       ,   0.80079999999999996     
   2648.3439999999996       ,   0.66410465398608931       ,   0.77105999999999997     
   2650.4530000000000       ,   0.59642439586924523       ,   0.72272000000000003     
   2652.5629999999996       ,   0.51518671823561546       ,   0.62653999999999999     
   2654.6869999999999       ,   0.43135487088902957       ,   0.52705999999999997     
   2656.8119999999999       ,   0.35455765712391396       ,   0.44155000000000000     
   2658.9369999999999       ,   0.29030952899358475       ,   0.35675000000000001     
   2661.0619999999999       ,   0.24049825787605525       ,   0.28781000000000001     
   2663.1880000000001       ,   0.20428135716035983       ,   0.23666000000000001     
   2665.3280000000000       ,   0.17918061203492475       ,   0.20233999999999999     
   2667.4690000000001       ,   0.16254041961955507       ,   0.17840000000000000     
   2669.5940000000001       ,   0.15173292335584218       ,   0.16306000000000001     
   2671.7339999999999       ,   0.14450988339796317       ,   0.15003000000000000     
   2673.8750000000000       ,   0.13957390575393580       ,   0.14568999999999999     
   2676.0160000000001       ,   0.13617382565800146       ,   0.13602000000000000     
   2678.1559999999999       ,   0.13403222227425804       ,   0.13392999999999999     
   2680.2970000000000       ,   0.13317517932876757       ,   0.12856000000000001     
   2682.4370000000004       ,   0.13377014767959103       ,   0.12833000000000000     
   2684.5780000000000       ,   0.13597222502547554       ,   0.12581999999999999     
   2686.7339999999999       ,   0.13981806285666049       ,   0.13621000000000000     
   2688.8910000000001       ,   0.14503598409438936       ,   0.13779000000000000     
   2691.0309999999999       ,   0.15097846376611579       ,   0.14645000000000000     
   2693.1720000000000       ,   0.15681659904295456       ,   0.14488000000000001     
   2695.3280000000000       ,   0.16156509573143604       ,   0.15606000000000000     
   2697.4840000000004       ,   0.16431542144221428       ,   0.16292000000000001     
   2699.6410000000001       ,   0.16463080682088302       ,   0.16569999999999999     
   2701.8130000000001       ,   0.16263999976484597       ,   0.15995000000000001     
   2703.9840000000004       ,   0.15904215132942753       ,   0.16667999999999999     
   2706.1410000000001       ,   0.15494240049271049       ,   0.16481999999999999     
   2708.2970000000000       ,   0.15150746515611091       ,   0.15467000000000000     
   2710.4689999999996       ,   0.14979563629028192       ,   0.15099000000000001     
   2712.6410000000001       ,   0.15057766049965210       ,   0.14946999999999999     
   2714.8130000000001       ,   0.15407216269867591       ,   0.14519000000000001     
   2716.9839999999999       ,   0.15988371313829153       ,   0.15160999999999999     
   2719.1559999999999       ,   0.16696860850563910       ,   0.15629999999999999     
   2721.3280000000000       ,   0.17386330299814645       ,   0.16802000000000000     
   2723.5000000000000       ,   0.17891831782836892       ,   0.17316999999999999     
   2725.6880000000001       ,   0.18082615603788765       ,   0.17902000000000001     
   2727.8750000000000       ,   0.17895409498776171       ,   0.17691000000000001     
   2730.0470000000000       ,   0.17363977004374734       ,   0.16950999999999999     
   2732.2190000000001       ,   0.16583077587047759       ,   0.16087000000000001     
   2734.4059999999999       ,   0.15671602195171716       ,   0.15195000000000000     
   2736.5940000000001       ,   0.14757392513558776       ,   0.14394999999999999     
   2738.7809999999999       ,   0.13934530456451610       ,   0.13558999999999999     
   2740.9839999999999       ,   0.13251453102444924       ,   0.12565999999999999     
   2743.1869999999999       ,   0.12730101431972302       ,   0.12375000000000000     
   2745.3750000000000       ,   0.12360811133024831       ,   0.12250999999999999     
   2747.5619999999999       ,   0.12113839327768226       ,   0.11858000000000000     
   2749.7660000000001       ,   0.11958993725954116       ,   0.11439000000000001     
   2751.9690000000001       ,   0.11872137813552414       ,   0.11620999999999999     
   2754.1720000000000       ,   0.11831839253559631       ,   0.11421000000000001     
   2756.3750000000000       ,   0.11823304495497192       ,   0.11771000000000000     
   2758.5780000000000       ,   0.11837425039458936       ,   0.11709000000000000     
   2760.7809999999999       ,   0.11869860674871835       ,   0.11706999999999999     
   2762.9839999999999       ,   0.11920035269613596       ,   0.11525000000000001     
   2765.2030000000000       ,   0.11989784530406830       ,   0.11164000000000000     
   2767.4220000000000       ,   0.12078893646168319       ,   0.11155000000000000     
   2769.6410000000001       ,   0.12183300348526485       ,   0.11312999999999999     
   2771.8440000000001       ,   0.12291849746352874       ,   0.11456000000000000     
   2774.0619999999999       ,   0.12390417750211097       ,   0.10942000000000000     
   2776.2970000000000       ,   0.12461151639049846       ,   0.10700000000000000     
   2778.5160000000001       ,   0.12489264931981023       ,   0.10700000000000000     
   2780.7339999999999       ,   0.12470120311406246       ,   0.10546000000000000     
   2782.9530000000000       ,   0.12408207238086025       ,   0.10272000000000001     
   2785.1720000000000       ,   0.12316771939723165       ,   0.10392999999999999     
   2787.4059999999999       ,   0.12215339645701540       ,   0.10644000000000001     
   2789.6410000000001       ,   0.12130183787381861       ,   0.11002000000000001     
   2791.8589999999999       ,   0.12091820561362374       ,   0.11506000000000000     
   2794.0940000000001       ,   0.12134614057422401       ,   0.11716000000000000     
   2796.3440000000001       ,   0.12300551348372160       ,   0.11799999999999999     
   2798.5780000000000       ,   0.12628748173628063       ,   0.12192000000000000     
   2800.8119999999999       ,   0.13154376634575882       ,   0.12781999999999999     
   2803.0620000000004       ,   0.13897707074385973       ,   0.12778000000000000     
   2805.2970000000000       ,   0.14826567646641303       ,   0.14161000000000001     
   2807.5309999999999       ,   0.15874480133697072       ,   0.15018000000000001     
   2809.7809999999999       ,   0.16929578921033081       ,   0.16053000000000001     
   2812.0309999999999       ,   0.17831218457196371       ,   0.17676000000000000     
   2814.2809999999999       ,   0.18434427443724416       ,   0.18390999999999999     
   2816.5309999999999       ,   0.18652065878452778       ,   0.19506999999999999     
   2818.7809999999999       ,   0.18488202252659075       ,   0.20218000000000000     
   2821.0309999999999       ,   0.18041333562438153       ,   0.19680000000000000     
   2823.2970000000000       ,   0.17481969497530131       ,   0.18525000000000000     
   2825.5620000000004       ,   0.17038498905470920       ,   0.17799999999999999     
   2827.8120000000004       ,   0.16949634040416864       ,   0.17657999999999999     
   2830.0780000000000       ,   0.17432450860949811       ,   0.17740000000000000     
   2832.3440000000001       ,   0.18647916989160956       ,   0.18378000000000000     
   2834.6089999999999       ,   0.20647436989431348       ,   0.19664999999999999     
   2836.8750000000000       ,   0.23335760085602614       ,   0.23252999999999999     
   2839.1410000000001       ,   0.26443050030830412       ,   0.25919999999999999     
   2841.4220000000000       ,   0.29549138553646570       ,   0.28344000000000003     
   2843.7030000000000       ,   0.32105722603982711       ,   0.30773000000000000     
   2845.9690000000001       ,   0.33622487875851298       ,   0.33995999999999998     
   2848.2340000000004       ,   0.33847848916093848       ,   0.34739999999999999     
   2850.5159999999996       ,   0.32787088659892405       ,   0.34344999999999998     
   2852.7970000000000       ,   0.30740664046026944       ,   0.32152999999999998     
   2855.0780000000000       ,   0.28201403621016125       ,   0.29505999999999999     
   2857.3590000000004       ,   0.25757165109717994       ,   0.27050999999999997     
   2859.6560000000004       ,   0.23975653710426698       ,   0.24790999999999999     
   2861.9530000000000       ,   0.23379119098235929       ,   0.24218999999999999     
   2864.2340000000004       ,   0.24319111755098016       ,   0.25608999999999998     
   2866.5159999999996       ,   0.26951344392094112       ,   0.28081000000000000     
   2868.8129999999996       ,   0.31214714749043182       ,   0.31888000000000000     
   2871.1089999999999       ,   0.36687909960794302       ,   0.37619999999999998     
   2873.4059999999999       ,   0.42632838199187306       ,   0.43589000000000000     
   2875.7030000000000       ,   0.48055040513535879       ,   0.50875999999999999     
   2878.0000000000000       ,   0.51920304790132721       ,   0.54664000000000001     
   2880.3119999999999       ,   0.53453939817544927       ,   0.58309000000000000     
   2882.6250000000000       ,   0.52346307849484364       ,   0.58767999999999998     
   2884.9220000000000       ,   0.48908001734871304       ,   0.55864000000000003     
   2887.2190000000001       ,   0.43820994815218156       ,   0.51265000000000005     
   2889.5309999999999       ,   0.37893270590084371       ,   0.45354000000000000     
   2891.8440000000001       ,   0.31961959102979459       ,   0.38551000000000002     
   2894.1559999999999       ,   0.26633193903287650       ,   0.31939000000000001     
   2896.4690000000001       ,   0.22237699130494479       ,   0.26390999999999998     
   2898.7970000000000       ,   0.18851640309570461       ,   0.21598000000000001     
   2901.1250000000000       ,   0.16425451638927352       ,   0.18637999999999999     
   2903.4380000000001       ,   0.14792940244961494       ,   0.16475999999999999     
   2905.7500000000000       ,   0.13739381908947443       ,   0.14884000000000000     
   2908.0780000000000       ,   0.13080234933242638       ,   0.13730000000000001     
   2910.4059999999999       ,   0.12676498681497073       ,   0.13431000000000001     
   2912.7339999999999       ,   0.12420862835566157       ,   0.12812999999999999     
   2915.0780000000000       ,   0.12242541093340657       ,   0.12463000000000000     
   2917.4059999999999       ,   0.12106060423852456       ,   0.12528000000000000     
   2919.7339999999999       ,   0.11997596558766851       ,   0.11977000000000000     
   2922.0780000000000       ,   0.11923793133774933       ,   0.11648000000000000     
   2924.4220000000000       ,   0.11908977507866143       ,   0.11883000000000001     
   2926.7500000000000       ,   0.11989804272475049       ,   0.12039000000000000     
   2929.0780000000000       ,   0.12214976260300706       ,   0.11989000000000000     
   2931.4220000000000       ,   0.12643798685444138       ,   0.12501000000000001     
   2933.7660000000001       ,   0.13326951351256988       ,   0.13052000000000000     
   2936.1250000000000       ,   0.14299084609314228       ,   0.13263000000000000     
   2938.4839999999999       ,   0.15536614286736677       ,   0.14494000000000001     
   2940.8280000000004       ,   0.16940985262937208       ,   0.16491000000000000     
   2943.1720000000000       ,   0.18363378485668125       ,   0.17377999999999999     
   2945.5309999999999       ,   0.19601148387739087       ,   0.18121999999999999     
   2947.8909999999996       ,   0.20432515867218992       ,   0.19681999999999999     
   2950.2500000000000       ,   0.20713802615548665       ,   0.19806000000000001     
   2952.6089999999999       ,   0.20420836020092992       ,   0.20454000000000000     
   2954.9690000000001       ,   0.19654941957746361       ,   0.18867000000000000     
   2957.3280000000000       ,   0.18614414242983196       ,   0.18290999999999999     
